Lat	Long	Speed	Temp	Sal	Chla
32.13880667	129.3780617	15.1	22.866	34.101	1.81
32.134985	129.37592	15.1	22.821	34.097	1.72
32.13116	129.3737583	15.2	22.779	34.084	1.74
32.12733833	129.3716017	15.2	22.734	34.079	1.76
32.12351333	129.369475	15.2	22.716	34.08	1.62
32.11968333	129.3672833	15.2	22.685	34.06	1.61
32.115865	129.36511	15.2	22.675	34.081	1.6
32.11206	129.3629483	15.1	22.656	34.07	1.56
32.10825	129.3607833	15.1	22.641	34.061	1.58
32.10441667	129.35866	15.2	22.647	34.064	1.6
32.10053833	129.3565633	15.3	22.655	34.071	1.66
32.096655	129.3544617	15.4	22.678	34.073	1.67
32.092745	129.3524083	15.5	22.698	34.076	1.58
32.088815	129.3502533	15.5	22.731	34.096	1.6
32.08491667	129.3481433	15.4	22.814	34.12	1.48
32.08101333	129.346025	15.4	22.86	34.128	1.53
32.077105	129.34391	15.4	22.916	34.14	1.45
32.07320667	129.3418017	15.4	22.992	34.162	1.49
32.06933	129.3396733	15.4	23.069	34.173	1.44
32.06545167	129.33751	15.3	23.135	34.179	1.55
32.06162	129.3353317	15.3	23.173	34.184	1.5
32.05770667	129.333195	15.4	23.196	34.181	1.52
32.053815	129.3310267	15.3	23.236	34.18	1.56
32.04996333	129.3288533	15.3	23.261	34.182	1.57
32.04612167	129.3266683	15.3	23.265	34.19	1.57
32.04232167	129.3244617	15.2	23.286	34.176	1.45
32.038505	129.3222567	15.2	23.287	34.173	1.57
32.034695	129.3200083	15.2	23.294	34.173	1.43
32.03086833	129.3177767	15.2	23.309	34.17	1.5
32.02708833	129.31551	15.1	23.325	34.173	1.54
32.023255	129.3133617	15.1	23.344	34.174	1.53
32.01947333	129.3112283	15.1	23.357	34.165	1.5
32.01567333	129.309025	15.1	23.377	34.167	1.52
32.01188667	129.30681	15.1	23.406	34.167	1.59
32.00810167	129.304625	15.2	23.426	34.165	1.55
32.00432	129.3024083	15.1	23.453	34.168	1.53
32.00054667	129.3002233	15.1	23.469	34.164	1.52
31.996775	129.298035	15.1	23.495	34.167	1.53
31.99299667	129.295785	15.1	23.506	34.166	1.52
31.98924167	129.2934933	15.1	23.506	34.161	1.61
31.98549667	129.2912217	15.1	23.504	34.16	1.65
31.98172833	129.2889583	15.1	23.498	34.154	1.69
31.977985	129.286685	15	23.491	34.157	1.75
31.97424833	129.284415	15.1	23.495	34.147	1.8
31.97053	129.28215	15.1	23.505	34.151	1.73
31.96680167	129.27985	15.1	23.522	34.154	1.57
31.963085	129.2775717	15	23.533	34.146	1.4
31.959315	129.27537	15	23.539	34.144	1.37
31.955555	129.2732317	15.1	23.543	34.144	1.35
31.951765	129.2710167	15.1	23.546	34.146	1.32
31.94799667	129.2687933	15.1	23.55	34.144	1.32
31.94423333	129.2666067	15.1	23.55	34.147	1.46
31.94045667	129.2644317	15.1	23.546	34.148	1.51
31.936635	129.2623817	15.1	23.543	34.153	1.56
31.93277167	129.2604633	15.1	23.55	34.149	1.53
31.92889333	129.2584983	15.1	23.543	34.165	1.42
31.925035	129.256555	15.1	23.541	34.173	1.38
31.92118333	129.2546517	15	23.542	34.181	1.43
31.91732667	129.2526467	15	23.536	34.185	1.47
31.913475	129.2506717	15.1	23.533	34.179	1.5
31.90963833	129.2487217	15	23.535	34.173	1.51
31.90579333	129.2467983	15.1	23.534	34.176	1.5
31.90190167	129.2448433	15.2	23.535	34.168	1.59
31.89803833	129.2428033	15.2	23.527	34.163	1.63
31.89414833	129.2407367	15.3	23.523	34.153	1.67
31.89025667	129.2386967	15.3	23.517	34.145	1.69
31.88639	129.2365917	15.3	23.513	34.141	1.72
31.88248167	129.234555	15.4	23.508	34.147	1.73
31.87859333	129.2324283	15.5	23.503	34.139	1.77
31.87466667	129.23042	15.4	23.5	34.143	1.76
31.87076333	129.2283083	15.4	23.508	34.138	1.68
31.86685333	129.2262367	15.4	23.514	34.138	1.64
31.86290833	129.224205	15.5	23.514	34.139	1.53
31.85900667	129.2221567	15.5	23.531	34.157	1.52
31.855045	129.22003	15.6	23.57	34.188	1.56
31.85109167	129.2179283	15.6	23.585	34.19	1.43
31.84706	129.2159133	15.7	23.61	34.201	1.49
31.843005	129.21389	15.6	23.619	34.211	1.43
31.83900167	129.2119067	15.6	23.619	34.202	1.41
31.83498167	129.20994	15.5	23.616	34.205	1.44
31.83095667	129.2079283	15.5	23.608	34.208	1.42
31.82696667	129.2060067	15.4	23.601	34.202	1.53
31.82301833	129.2039967	15.4	23.593	34.201	1.48
31.81910167	129.2020467	15.4	23.591	34.203	1.51
31.81516333	129.2000733	15.2	23.588	34.202	1.51
31.81123	129.1981433	15.2	23.59	34.205	1.51
31.80729667	129.1961633	15.2	23.591	34.206	1.58
31.80344833	129.1941517	15.1	23.595	34.205	1.52
31.79954833	129.1922417	15.1	23.597	34.207	1.54
31.79566333	129.1903133	15.1	23.612	34.201	1.52
31.79181	129.1882817	15.1	23.622	34.2	1.51
31.78794167	129.1862933	15.2	23.627	34.187	1.49
31.78409333	129.184275	15.2	23.624	34.18	1.54
31.78030333	129.181985	15.2	23.617	34.171	1.67
31.77676667	129.17916	15.3	23.615	34.173	1.61
31.77323667	129.1763633	15.3	23.619	34.173	1.7
31.76970833	129.1735383	15.4	23.62	34.178	1.74
31.76618833	129.170685	15.4	23.626	34.189	1.75
31.76263167	129.1678733	15.4	23.642	34.198	1.75
31.75909333	129.1650483	15.4	23.666	34.208	1.78
31.755535	129.1622583	15.4	23.689	34.211	1.8
31.75198667	129.159465	15.3	23.703	34.199	1.77
31.74843	129.1566667	15.4	23.706	34.192	1.83
31.74487167	129.1538717	15.4	23.683	34.165	1.91
31.74131333	129.1510733	15.4	23.659	34.142	1.87
31.73776667	129.1482717	15.4	23.631	34.139	1.84
31.73423167	129.14549	15.4	23.608	34.139	1.91
31.73068167	129.14268	15.4	23.598	34.142	1.87
31.727165	129.1398517	15.3	23.602	34.147	2
31.72361333	129.1370567	15.3	23.608	34.158	2.05
31.72007333	129.1342283	15.4	23.611	34.156	2.06
31.71652	129.1314283	15.4	23.616	34.165	1.99
31.712975	129.1286067	15.4	23.62	34.162	1.98
31.70942333	129.12579	15.4	23.632	34.169	2.02
31.705855	129.122995	15.4	23.639	34.17	2.03
31.70228667	129.120185	15.4	23.646	34.173	2.1
31.69873333	129.1173383	15.4	23.67	34.18	2.06
31.69516667	129.1145333	15.4	23.692	34.172	2.1
31.69161167	129.1116983	15.4	23.7	34.167	2.15
31.68804333	129.108885	15.5	23.707	34.175	2.14
31.68452667	129.1060917	15.4	23.712	34.178	2.41
31.68094667	129.10322	15.4	23.711	34.172	2.16
31.67737667	129.1003967	15.4	23.711	34.174	2.18
31.67382667	129.0975517	15.4	23.712	34.182	2.13
31.67027	129.0947083	15.5	23.713	34.179	2.21
31.66674	129.091865	15.5	23.714	34.184	2.22
31.66319833	129.08903	15.5	23.724	34.185	2.15
31.65968667	129.0861583	15.4	23.729	34.193	2.26
31.65614833	129.0832967	15.4	23.731	34.193	2.16
31.65261	129.0804517	15.4	23.741	34.194	2.22
31.64909333	129.077595	15.3	23.755	34.191	2.22
31.64556667	129.07475	15.3	23.76	34.192	2.32
31.64204333	129.0719233	15.4	23.756	34.177	2.19
31.63847667	129.0691133	15.4	23.743	34.173	2.25
31.63495333	129.066245	15.5	23.738	34.165	2.15
31.63138167	129.0633617	15.4	23.73	34.16	2.25
31.62784833	129.0604533	15.4	23.727	34.155	2.21
31.62434167	129.0575917	15.4	23.719	34.159	2.1
31.62081167	129.0547667	15.4	23.721	34.157	2.19
31.617205	129.0519883	15.3	23.712	34.154	2.23
31.61369333	129.049215	15.3	23.708	34.152	2.17
31.61015667	129.0464133	15.3	23.711	34.156	2.09
31.60661833	129.04358	15.3	23.713	34.16	2.11
31.60311333	129.0407433	15.3	23.726	34.165	2.11
31.59958833	129.0379567	15.3	23.748	34.239	2.1
31.59608167	129.0351633	15.4	23.822	34.304	1.92
31.592545	129.0323283	15.3	23.91	34.343	1.74
31.589025	129.0294583	15.4	24.011	34.383	1.56
31.58549667	129.0265933	15.4	24.095	34.42	1.54
31.58196833	129.02375	15.4	24.178	34.446	1.45
31.57845333	129.0208383	15.4	24.233	34.462	1.41
31.57491	129.0179583	15.4	24.311	34.492	1.33
31.57133833	129.0150983	15.5	24.342	34.511	1.23
31.56777333	129.01225	15.4	24.402	34.532	1.13
31.564225	129.0093783	15.5	24.458	34.556	1.07
31.56064667	129.0065867	15.5	24.489	34.57	1.08
31.55707167	129.00374	15.5	24.53	34.573	1
31.55348833	129.0008983	15.5	24.557	34.573	1.02
31.54985667	128.99808	15.6	24.566	34.57	1.02
31.54628333	128.9952733	15.6	24.572	34.568	1.03
31.54266333	128.992425	15.5	24.569	34.572	1.06
31.53905333	128.9896233	15.5	24.568	34.564	1.07
31.53543167	128.9868067	15.6	24.566	34.571	1.1
31.53180333	128.9840617	15.5	24.553	34.565	1.13
31.52821	128.9812433	15.4	24.548	34.549	1.15
31.52464667	128.9785233	15.5	24.539	34.552	1.2
31.52102833	128.9757983	15.4	24.534	34.546	1.23
31.517405	128.9730417	15.5	24.527	34.538	1.29
31.513785	128.9702833	15.5	24.522	34.545	1.23
31.51016	128.9675367	15.5	24.52	34.536	1.22
31.506545	128.9648	15.5	24.511	34.529	1.2
31.50293833	128.9620467	15.4	24.503	34.522	1.23
31.49935333	128.959305	15.5	24.501	34.518	1.22
31.49571167	128.9565117	15.5	24.5	34.52	1.3
31.49209333	128.9537433	15.5	24.492	34.508	1.27
31.48848833	128.9510017	15.5	24.489	34.514	1.27
31.48490167	128.948225	15.4	24.482	34.507	1.26
31.48132333	128.9454733	15.4	24.481	34.508	1.25
31.47772333	128.942695	15.4	24.472	34.499	1.26
31.47411333	128.93995	15.5	24.469	34.493	1.21
31.47051667	128.9371833	15.4	24.462	34.492	1.25
31.46692167	128.9344233	15.4	24.455	34.48	1.25
31.46331833	128.9316733	15.5	24.451	34.483	1.19
31.459725	128.9289083	15.4	24.444	34.484	1.21
31.45612167	128.926145	15.5	24.435	34.473	1.3
31.45251	128.9233983	15.4	24.426	34.465	1.23
31.44890167	128.9206517	15.4	24.416	34.475	1.21
31.44528167	128.9179083	15.5	24.404	34.466	1.25
31.441665	128.9151383	15.5	24.391	34.456	1.26
31.43804167	128.9123883	15.5	24.381	34.456	1.22
31.43443667	128.90961	15.5	24.367	34.457	1.29
31.43080667	128.9068267	15.6	24.357	34.452	1.3
31.42718167	128.9040267	15.6	24.347	34.443	1.3
31.42353667	128.901245	15.6	24.341	34.44	1.3
31.419905	128.898405	15.7	24.333	34.435	1.29
31.41624167	128.8955983	15.7	24.326	34.435	1.29
31.41255833	128.8928183	15.8	24.315	34.428	1.33
31.40889	128.88999	15.8	24.313	34.428	1.35
31.40522667	128.8871583	15.8	24.311	34.429	1.3
31.40154833	128.8843367	15.8	24.308	34.434	1.3
31.39789167	128.881505	15.8	24.307	34.427	1.31
31.39423167	128.8786667	15.8	24.307	34.428	1.25
31.39057	128.8758067	15.8	24.31	34.43	1.27
31.38688	128.87301	15.8	24.309	34.427	1.31
31.38322667	128.870135	15.7	24.307	34.425	1.29
31.37956167	128.867295	15.8	24.302	34.424	1.3
31.37588833	128.8644767	15.8	24.297	34.415	1.28
31.37223	128.86162	15.8	24.293	34.416	1.4
31.36860833	128.8588167	15.7	24.287	34.411	1.39
31.36494333	128.8559917	15.7	24.278	34.405	1.47
31.36125667	128.8532033	15.8	24.274	34.412	1.4
31.357595	128.8503567	15.7	24.268	34.402	1.41
31.35392833	128.8475233	15.8	24.257	34.4	1.38
31.35026333	128.8447083	15.7	24.251	34.392	1.44
31.34660167	128.8419267	15.7	24.244	34.392	1.44
31.34298833	128.8390983	15.6	24.241	34.394	1.46
31.33934833	128.8362883	15.6	24.214	34.395	1.5
31.33570667	128.833465	15.7	24.162	34.376	1.46
31.33204667	128.8306467	15.7	24.126	34.373	1.48
31.32840333	128.8278317	15.7	24.089	34.363	1.47
31.32476167	128.8250067	15.7	24.05	34.361	1.5
31.32110333	128.822205	15.8	24.033	34.356	1.49
31.31744	128.81938	15.7	24.005	34.347	1.44
31.31378	128.8165683	15.7	23.992	34.34	1.49
31.31007333	128.81383	15.7	23.966	34.334	1.46
31.306425	128.8110383	15.6	23.953	34.342	1.46
31.30274667	128.8083017	15.7	23.936	34.34	1.58
31.29907167	128.8055633	15.6	23.922	34.33	1.51
31.29541333	128.802805	15.6	23.92	34.333	1.52
31.29174167	128.8000633	15.6	23.937	34.353	1.52
31.288075	128.79732	15.6	23.951	34.355	1.54
31.28440333	128.79458	15.6	23.97	34.375	1.43
31.28075	128.7918217	15.6	24.008	34.384	1.35
31.27709167	128.7891117	15.5	24.043	34.407	1.33
31.27341833	128.7864467	15.5	24.063	34.411	1.26
31.26973333	128.7837933	15.6	24.074	34.408	1.42
31.26605667	128.7811283	15.5	24.075	34.415	1.27
31.26239	128.7784517	15.5	24.064	34.406	1.33
31.25876667	128.7757033	15.5	24.047	34.38	1.39
31.255145	128.7729617	15.5	23.987	34.341	1.48
31.25152667	128.770185	15.5	23.907	34.283	1.71
31.24791333	128.7674133	15.5	23.824	34.237	1.71
31.24432167	128.7646467	15.4	23.779	34.201	1.79
31.240715	128.7618817	15.4	23.751	34.198	1.82
31.237115	128.7591567	15.4	23.733	34.189	1.76
31.23355167	128.7563867	15.4	23.734	34.193	1.89
31.22993667	128.7536617	15.3	23.745	34.199	1.85
31.22636667	128.7508917	15.4	23.752	34.207	1.84
31.22281333	128.74812	15.4	23.763	34.217	1.86
31.2193	128.7453317	15.3	23.773	34.223	1.84
31.21577	128.74255	15.2	23.783	34.225	1.84
31.21225333	128.7398133	15.2	23.795	34.256	1.8
31.20874667	128.7370433	15.2	23.802	34.255	1.73
31.20523	128.734275	15.2	23.804	34.258	1.73
31.201725	128.7314917	15.2	23.808	34.255	1.76
31.19821	128.7287283	15.2	23.797	34.248	1.75
31.19468333	128.7259283	15.2	23.786	34.24	1.73
31.19118333	128.7231533	15.2	23.755	34.215	1.76
31.18770167	128.7203667	15.2	23.742	34.214	1.68
31.18417167	128.7176333	15.2	23.721	34.203	1.73
31.18067833	128.71485	15.2	23.692	34.197	1.77
31.17714333	128.7120967	15.2	23.678	34.202	1.71
31.17361833	128.70938	15.2	23.681	34.194	1.6
31.170075	128.7066433	15.3	23.701	34.217	1.52
31.166545	128.703865	15.3	23.73	34.235	1.5
31.16301833	128.701085	15.3	23.761	34.25	1.58
31.15949667	128.6982933	15.3	23.805	34.285	1.47
31.15597	128.6955083	15.3	23.842	34.3	1.56
31.15243	128.692715	15.3	23.876	34.319	1.63
31.148875	128.6899267	15.4	23.916	34.322	1.66
31.14531667	128.6871467	15.4	23.932	34.328	1.79
31.14175	128.6843867	15.4	23.961	34.341	1.72
31.13818833	128.68164	15.3	23.977	34.34	1.83
31.13462667	128.6788983	15.3	23.986	34.338	1.74
31.13109333	128.67615	15.3	23.992	34.328	1.76
31.127555	128.673465	15.1	23.991	34.325	1.78
31.12404667	128.670805	15	23.978	34.322	1.79
31.12052333	128.6681583	15	23.96	34.304	1.7
31.11701333	128.66548	15	23.929	34.276	1.71
31.1135	128.6628583	14.9	23.898	34.268	1.67
31.11000667	128.660265	14.9	23.876	34.248	1.7
31.10648167	128.65765	15	23.872	34.252	1.69
31.10296333	128.655025	15	23.866	34.249	1.64
31.09941667	128.652445	15	23.874	34.269	1.7
31.09587833	128.649855	15	23.922	34.305	1.68
31.092335	128.647245	15	23.988	34.349	1.63
31.08880333	128.64462	15	24.08	34.39	1.57
31.08527667	128.6419867	15	24.174	34.431	1.46
31.08175667	128.63939	14.9	24.303	34.477	1.44
31.07825833	128.6367767	14.9	24.426	34.52	1.3
31.07476167	128.6341533	14.9	24.522	34.546	1.23
31.07127333	128.6315	15	24.629	34.586	1.09
31.06778167	128.6288283	15	24.741	34.617	1
31.064275	128.6261533	15	24.903	34.666	0.95
31.06078333	128.6234483	15.1	24.982	34.69	0.94
31.0573	128.6207683	15	25.078	34.715	0.96
31.05380333	128.6180783	15	25.168	34.729	0.97
31.05032333	128.6153633	15	25.248	34.745	1.02
31.04683667	128.6126683	15	25.289	34.745	1.07
31.04334333	128.6099317	15	25.333	34.753	1.11
31.03986167	128.607195	15.1	25.37	34.767	1.13
31.03638833	128.604435	15	25.413	34.756	1.06
31.03291167	128.60166	15	25.434	34.77	1.06
31.02941333	128.5989667	15.1	25.445	34.769	1.01
31.02590333	128.59629	15.1	25.471	34.761	1
31.02239833	128.5936083	15	25.486	34.769	0.95
31.01891333	128.5909	15	25.481	34.762	0.93
31.01541833	128.588215	15	25.499	34.777	0.9
31.01192167	128.585495	15	25.522	34.774	0.96
31.00845167	128.58279	15	25.539	34.782	0.99
31.00495833	128.5800933	15	25.556	34.79	1.03
31.00147833	128.5774117	15	25.58	34.806	1.03
30.998005	128.5747083	15	25.604	34.8	1.08
30.99451667	128.5720267	15	25.608	34.8	1.1
30.99103667	128.5693017	15	25.62	34.799	1.04
30.98757667	128.566605	15	25.619	34.802	1.08
30.98410167	128.5638733	15	25.611	34.787	1.04
30.98062167	128.5611583	15	25.611	34.782	1
30.97717	128.5584433	15	25.601	34.769	0.96
30.9737	128.5556917	15	25.593	34.765	0.91
30.97023333	128.5529483	15	25.578	34.756	0.92
30.96676	128.550185	15	25.581	34.755	0.93
30.96329	128.5474433	15	25.568	34.75	0.95
30.95981667	128.5446983	15.1	25.56	34.749	1.02
30.95634667	128.541915	15.1	25.556	34.744	1.02
30.95284667	128.539145	15.1	25.547	34.753	1.04
30.94935333	128.5363633	15.1	25.545	34.749	1.03
30.945855	128.5336267	15.1	25.536	34.747	0.98
30.94235167	128.5308683	15.2	25.539	34.744	0.96
30.93886333	128.5280717	15.2	25.53	34.744	0.96
30.935375	128.525305	15.2	25.529	34.746	0.98
30.93186167	128.5225183	15.2	25.531	34.743	0.96
30.92836667	128.5197567	15.2	25.525	34.744	0.94
30.92483833	128.51699	15.2	25.517	34.744	0.91
30.92133167	128.5142133	15.3	25.517	34.741	0.91
30.91780667	128.5114917	15.2	25.518	34.744	0.94
30.91429	128.5087	15.2	25.522	34.745	0.93
30.910795	128.5059817	15.1	25.516	34.744	0.94
30.90731333	128.5032383	15.1	25.511	34.746	0.95
30.90383833	128.5005133	15.1	25.51	34.74	0.97
30.90035667	128.4977633	15.1	25.506	34.727	1.02
30.89687	128.495	15.1	25.502	34.729	0.97
30.89339167	128.492245	15.1	25.5	34.735	0.98
30.88993	128.48947	15.1	25.5	34.727	0.97
30.88647667	128.4867317	15	25.498	34.724	0.95
30.883015	128.4839717	15	25.485	34.716	0.93
30.87956333	128.4811933	15	25.481	34.713	0.98
30.87610167	128.478445	15	25.476	34.703	1
30.87263	128.4757433	14.9	25.46	34.703	1.01
30.86916833	128.4730567	14.9	25.447	34.693	1.02
30.86568833	128.4703983	14.9	25.43	34.684	0.96
30.86221333	128.46775	14.9	25.403	34.668	0.93
30.85874833	128.4650967	14.8	25.366	34.656	0.97
30.85531667	128.4624467	14.8	25.32	34.627	1.12
30.85185833	128.4597883	14.8	25.258	34.615	1.14
30.84839333	128.4571617	14.9	25.221	34.612	1.16
30.844905	128.4545133	14.9	25.189	34.601	1.19
30.8414	128.45186	14.9	25.168	34.596	1.22
30.83789833	128.4492083	15	25.152	34.602	1.28
30.83437833	128.4465883	15	25.13	34.585	1.25
30.83086	128.4439283	15	25.115	34.575	1.32
30.827325	128.4412833	15	25.083	34.553	1.32
30.82378667	128.43867	15.1	25.061	34.547	1.25
30.82026167	128.4360367	14.9	25.038	34.543	1.32
30.81678167	128.4333733	15	25.01	34.527	1.29
30.81327833	128.4307267	15	24.985	34.504	1.34
30.80977833	128.4280683	15	24.962	34.501	1.3
30.80627833	128.4253983	15	24.919	34.477	1.33
30.80276667	128.4227483	15	24.877	34.47	1.31
30.79929	128.42005	15	24.857	34.471	1.35
30.79579	128.417385	15	24.838	34.462	1.37
30.79227	128.4147417	15	24.815	34.46	1.4
30.78878833	128.4120933	15	24.801	34.458	1.39
30.78526333	128.4094683	14.9	24.792	34.455	1.37
30.78176167	128.4068083	14.9	24.78	34.445	1.45
30.77825833	128.404175	15	24.762	34.442	1.42
30.77473167	128.401595	15	24.743	34.433	1.39
30.77121	128.398965	15	24.723	34.422	1.5
30.76768667	128.3963483	15	24.686	34.403	1.4
30.76417333	128.3937117	15	24.668	34.396	1.45
30.760655	128.3910867	15	24.654	34.394	1.49
30.75713	128.3884833	15	24.645	34.401	1.49
30.75363	128.38586	14.9	24.659	34.425	1.4
30.75014333	128.3832183	14.9	24.698	34.464	1.3
30.74669333	128.3805183	14.9	24.758	34.509	1.22
30.74326833	128.3778183	14.8	24.825	34.54	1.16
30.73985333	128.37512	14.8	24.894	34.569	1.16
30.73644333	128.3724	14.8	24.946	34.593	1.14
30.73302	128.3696967	14.8	24.993	34.602	1.17
30.7296	128.3669983	14.8	25.017	34.607	1.15
30.72617167	128.36431	14.8	25.063	34.617	1.16
30.72275333	128.3616133	14.8	25.069	34.622	1.16
30.719335	128.35891	14.8	25.099	34.629	1.2
30.71593333	128.35618	14.8	25.11	34.621	1.15
30.71253833	128.3534683	14.8	25.115	34.613	1.21
30.70914	128.3507317	14.8	25.119	34.614	1.19
30.70574167	128.3480017	14.8	25.117	34.61	1.22
30.70233833	128.3452833	14.8	25.125	34.613	1.19
30.69895667	128.3425517	14.7	25.127	34.618	1.18
30.69558167	128.3398233	14.7	25.142	34.632	1.1
30.69221167	128.3370883	14.7	25.161	34.64	1.11
30.68883833	128.334355	14.7	25.17	34.64	1.06
30.68548667	128.331605	14.7	25.179	34.646	1.03
30.68213333	128.3288517	14.7	25.186	34.631	1.03
30.67879	128.3261067	14.7	25.183	34.627	1
30.67546	128.323345	14.6	25.189	34.627	0.97
30.67215833	128.32058	14.6	25.181	34.621	0.98
30.66886167	128.3178283	14.6	25.183	34.624	0.97
30.66557667	128.3150067	14.7	25.182	34.618	0.99
30.66222333	128.3123167	14.6	25.177	34.612	0.98
30.65887333	128.309615	14.6	25.173	34.611	0.96
30.65552333	128.3069383	14.6	25.172	34.616	1
30.65215333	128.3042867	14.6	25.175	34.608	0.97
30.64878667	128.3016467	14.6	25.16	34.59	0.96
30.64542667	128.2989967	14.5	25.12	34.568	1.07
30.64204333	128.2963683	14.6	25.08	34.561	1.05
30.638655	128.2937267	14.6	25.042	34.55	1.15
30.635245	128.2910733	14.7	25.005	34.548	1.16
30.63184667	128.28843	14.7	24.973	34.535	1.19
30.62842833	128.28576	14.8	24.938	34.529	1.19
30.62499667	128.2830883	14.8	24.915	34.517	1.19
30.621565	128.2804133	14.8	24.895	34.508	1.22
30.618105	128.277765	14.8	24.879	34.509	1.29
30.61466833	128.275075	14.9	24.866	34.504	1.31
